988.31,987.61,988.08,988.08,988.31,988.08,987.84,987.61,992.84,990.78,989.01,988.01,985.54,986.54,985.54,983.01,982.94,981.71,984.01,987.01,983.24,982.71,980.71,982.94,987.71,990.78,986.31,979.54,977.24,971.01,972.31,967.84,966.84,966.24,963.94,964.17,962.31,963.61,965.84,964.54,963.01,960.24,960.24,960.71,961.17,962.17,960.17,957.71,962.17,964.41,964.64,963.17,961.24,957.24,960.71,958.94,962.71,960.01,957.78,954.78,954.01,951.24,946.24,941.24,941.71,937.01,927.01,921.48,921.24,933.01,952.24,974.24,1003.5,1041.1,1091.8,1141.5,1173.5,1184.8,1169.6,1121.1,1051.5,984.08,944.54,930.78,931.84,942.84,950.84,951.38,948.91,946.44,949.21,950.44,952.68,953.44,951.44,947.98,946.98,950.68,946.21,948.44,950.14,949.14,949.21,949.04,948.04,948.74,946.44,944.21,947.98,949.04,952.11,949.81,950.04,948.28,945.81,946.34,944.65,943.18,941.41,942.11,946.04,948.28,948.51,948.28,944.88,941.95,946.25,946.48,945.48,945.01,944.25,944.95,944.18,945.01,943.01,940.55,938.61,939.61,940.61,943.85,946.08,943.31,944.55,941.31,945.48,944.01,943.08,940.15,939.91,938.38,941.61,941.38,941.45,941.28,937.05,937.28,938.75,940.05,939.58,939.35,936.12,934.65,934.18,936.65,936.88,938.65,935.65,933.65,933.42,933.65,932.65,933.65,932.12,928.65,931.42,933.18,933.95,932.72,929.95,929.72,931.72,930.78,931.08,930.15,928.69,928.15,931.85,936.85,937.85,937.38,935.85,935.78,941.25,942.62,941.45,942.75,941.52,942.75,944.45,946.45,949.75,949.82,949.35,946.12,947.89,950.12,953.12,950.12,950.59,948.59,948.59,951.35,949.35,947.65,948.95,946.95,947.95,948.19,945.19,945.49,945.02,943.79,943.25,944.02,944.55,941.55,940.55,939.02,942.95,941.86,942.92,939.39,940.09,939.32,941.32,940.39,942.39,941.62,937.92,937.86,940.32,940.86,938.39,938.69,933.76,934.69,933.92,935.22,932.12,929.89,930.59,931.12,935.46,937.22,936.06,935.06,934.52,932.46,936.22,934.76,933.52,932.52,932.22,929.22,931.29,933.06,934.82,931.29,928.06,926.59,929.12,932.12,931.12,929.89,928.12,926.36,927.12,928.66,928.72,929.96,931.12,930.36,932.36,931.12,934.82,933.06,932.82,932.06,930.89,933.89,935.89,933.36,931.36,928.66,929.72,931.49,932.49,934.26,936.03,935.49,935.96,937.19,941.42,940.96,940.42,946.89,948.12,949.96,950.72,949.49,947.72,944.96,946.96,945.72,946.42,946.66,945.19,942.33,940.86,942.56,946.96,949.42,950.19,942.66,932.09,931.63,928.16,927.09,923.56,923.33,923.86,925.16,923.69,924.93,923.86,920.86,918.93,919.93,919.69,917.93,919.16,917.63,923.09,922.09,922.86,924.63,919.86,918.09,921.09,922.63,923.63,922.63,918.86,915.63,916.39,912.63,903.39,898.93,892.46,885.46,879.76,885.76,904.23,927.23,954.76,983.06,1033.1,1084.8,1131,1161.3,1174.1,1167.1,1137.5,1085,1020.5,964.99,932.53,908.06,895.59,891.29,895.06,900.59,908.29,908.53,909.53,908.29,910.06,910.06,910.06,907.06,909.06,908.83,909.06,911.29,907.06,904.06,903.59,905.36,905.9,907.36,904.59,906.59,909.06,911.53,908.76,908.29,904.83,903.59,904.06,907.83,907.59,906.59,904.83,902.59,905.13,903.59,904.13,902.66,901.66,902.9,905.36,906.53,907.53,908.29,904.83,903.13,906.66,906.43,907.43,907.9,903.36,904.36,906.13,906.66,910.13,907.13,906.36,903.36,905.13,907.13,907.83,909.99,905.99,903.53,902.59,904.9,905.43,903.43,902.59,902.06,902.06,903.83,902.59,900.83,901.83,898.83,900.06,900.99,902.99,900.53,895.83,895.53,896.76,899.76,897.76,897.23,896.69,893.69,895.46,896.23,897.23,895.29,891.83,891.29,895.23,897.93,899.39,900.39,900.69,898.99,904.53,907.53,912.53,913.99,915.93,915.63,921.33,924.09,925.39,923.69,921.93,922.39,924.63,926.86,928.16,927.93,924.39,924.63,925.86,927.86,927.86,930.09,925.33,923.33,928.33,927.33,929.79,929.56,924.16,921.99,926.86,928.09,925.86,928.79,927.26,927.72,929.19,932.19,933.42,930.42,928.49,925.56,925.86,929.09,926.79,927.26,927.26,924.03,927.03,926.72,927.72,925.96,923.49,921.56,922.56,923.03,924.03,924.79,921.03,920.03,921.49,924.19,925.89,925.66,922.42,922.19,923.12,928.12,925.66,924.19,923.42,921.12,925.36,926.36,926.59,926.06,921.12,919.89,921.12,922.12,923.66,922.19,921.72,922.42,923.59,927.99,927.76,925.82,922.89,921.42,922.12,925.52,928.92,925.92,925.46,923.46,924.22,925.76,927.99,926.22,926.46,926.92,928.69,927.46,928.46,928.16,926.62,926.86,927.39,929.39,932.86,937.32,936.09,936.62,938.16,940.62,942.62,942.16,942.39,945.55,947.02,949.49,951.55,953.09,948.32,947.32,947.86,946.39,948.39,946.39,945.62,940.16,941.79,943.55,946.09,952.02,953.49,951.02,944.25,943.02,940.32,939.79,936.02,933.02,929.49,931.72,930.95,930.72,926.95,924.42,926.42,928.49,927.25,926.72,925.42,923.65,922.19,923.72,924.72,924.49,921.49,920.49,921.49,922.49,927.19,924.42,920.19,917.19,916.19,911.42,905.89,900.89,894.89,887.19,884.89,893.89,917.65,948.19,980.65,1023.1,1080.9,1136.7,1175,1189,1168.4,1103.4,1010.1,935.82,899.12,897.65,909.65,916.35,920.82,922.29,921.75,922.05,919.65,917.65,920.12,918.82,922.99,921.99,921.75,918.75,918.82,919.35,918.89,916.59,920.45,918.85,918.69,920.22,920.92,919.55,920.02,916.78,918.38,919.45,918.99,919.52,915.29,913.35,914.42,914.49,915.25,915.25,913.19,915.35,920.29,921.75,920.05,920.05,922.22,920.32,922.08,924.15,920.75,920.29,917.29,915.05,916.45,917.75,916.12,916.19,913.65,915.05,916.75,918.45,921.92,921.92,920.38,917.38,919.45,920.45,922.69,922.85,922.85,922.08,926.08,923.08,924.62,924.15,922.15,919.62,921.85,922.32,922.25,921.25,919.32,918.38,916.92,918.69,918.45,920.15,916.08,917.08,915.62,918.38,918.62,919.32,920.02,919.72,920.65,923.12,927.35,927.35,928.35,932.05,935.98,941.15,942.38,942.68,941.68,940.75,941.82,942.58,946.28,947.21,945.21,945.05,945.35,946.58,947.28,947.51,945.98,947.15,947.61,946.61,949.38,948.61,947.78,946.08,948.11,951.11,951.18,952.11,949.58,949.04,952.58,950.88,953.41,949.95,946.71,947.34,952.14,951.68,950.74,948.58,944.74,947.54,952.11,952.64,952.48,950.78,950.71,946.94,948.94,948.48,947.71,946.94,948.41,946.64,948.87,949.64,952.11,949.57,951.04,947.81,948.74,951.51,950.74,952.44,948.67,947.14,949.61,952.31,951.77,952.77,951.31,949,952.87,954.8,957.8,957.1,957.57,953.8,954.8,959.27,959.5,960.27,957.5,955.74,956.5,957.74,958.2,958.44,954.67,952.67,958.9,958.13,959.13,958.13,958.13,955.67,959.3,962.07,960.07,962.3,962.07,961.37,963.3,970.23,971.93,972.17,971.4,972.63,976.33,976.87,978.4,976.93,978.1,979.57,981.57,982.4,984.4,981.87,980.87,979.1,978.33,981.1,980.8,980.27,979.96,980.96,980.43,982.13,985.3,987.76,991.46,987,984.63,978.86,978.63,972.33,969.79,965.56,964.79,966.49,968.96,967.73,965.96,965.19,963.26,965.26,965.73,966.66,965.83,964.53,965.76,970.06,970.06,968.23,969.09,965.32,967.09,967.62,971.49,970.12,967.52,962.39,959.15,952.22,951.22,947.75,944.75,932.29,928.19,932.58,943.58,960.28,982.75,1006.7,1038.8,1080.8,1137.5,1189.3,1221.8,1230.1,1211.7,1152,1069.5,995.49,958.12,955.75,965.92,978.92,982.68,981.98,979.05,976.58,977.58,982.28,979.19,977.02,974.32,974.25,975.95,977.89,981.52,979.82,975.89,975.12,974.49,975.85,971.75,971.22,971.75,970.59,969.59,973.82,975.29,974.75,972.82,970.89,970.42,970.42,971.89,972.36,969.89,970.36,972.06,971.42,973.19,974.72,971.79,970.26,971.96,973.66,973.09,968.53,964.43,964.89,968.29,971.46,970.76,968.99,967.46,968.46,967.53,971.83,969.36,966.66,964.19,967.66,966.89,969.13,967.19,962.86,965.33,966.79,966.56,967.26,967.26,965.33,961.7,961,965.76,964.3,963.06,961.76,962.16,962.16,964.46,965.3,962,963.23,960.76,964,964.93,967.63,965.93,962,959.3,961.53,961.06,963.83,963.66,963.6,962.36,966.43,969.43,972.2,972.73,971.27,970.27,972.96,977.9,979.43,976.2,976.96,979.66,980.36,982.06,984.06,982.06,979.6,978.13,977.66,978.2,979.5,977.96,977.66,975.36,978.6,979.9,979.96,981.2,977.2,974.73,975.96,977.2,978.83,982.23,976.9,974.03,973.63,974.63,974.8,974.73,973.2,974.66,973.9,977.2,975.5,974.43,972.53,971.46,971.83,971.5,971.03,973.2,971.9,968.73,969.96,972.73,970.57,971.73,970.2,967.43,967.96,968.96,969.96,967.57,965.8,965.5,966.27,968.2,969.66,971.3,973.7,971.3,968.2,968.96,972.9,969.83,968.66,965.73,961.8,962.1,965.57,967.2,967.83,967.6,966.66,967.73,967.03,966.27,966.96,960.43,963.27,962.8,966.73,968.13,967.6,966.13,967.66,971.13,971.83,970.6,969.9,968.2,970.2,973.13,979.36,979.13,978.76,978.46,982.23,983.23,982.6,980.66,982.6,984.06,985.53,989.23,992.76,989.3,989.6,986.13,987.06,990.46,993.16,990.33,988.33,986.53,987.53,985,986.46,983.46,988.23,989.23,989.76,986.23,984.16,981.1,977.16,974.93,972.23,971.86,974.4,972.93,971.86,969.79,972.73,976.13,978.06,975.36,968.63,966.7,964.46,966.16,967.16,967.63,965.33,967.03,967.96,970.66,969.66,971.19,968.49,966.49,969.96,971.19,972.26,971.49,968.96,966.19,962.33,955.1,952.56,945.26,939.49,929.73,931.49,948.43,972.66,1000.1,1033.1,1080.9,1138,1182.8,1205.1,1196.9,1148.3,1071,1002.5,958.96,942.49,946.03,952.49,961.89,963.66,964.96,964.03,961.56,960.33,957.49,956.79,960.1,961.16,959.4,959.86,958.1,960.56,964.79,963.79,962.79,962.79,962.33,962.79,963.4,962.86,962.86,961.1,956.56,959.79,960.86,962.33,962.03,960.79,956.1,957.63,959.4,960.1,960.56,960.03,959.96,961.03,956.16,957.53,956.53,957.46,955.93,957.4,960.1,963.26,962.56,961.4,959.23,960.23,961.4,960.79,961.26,956.86,952.23,956.46,957.76,960.23,961.93,957.16,959.4,960.1,962.03,962.79,962.1,959.16,956.16,957.63,961.56,963.03,962.73,962.19,956.56,955.4,954.46,955.46,954.93,950.4,951.4,951.1,954.79,953.26,948.96,952.43,951.89,955.89,956.66,958.89,957.19,954.19,952.96,954.43,956.73,959.19,960.96,957.49,958.26,961.49,966.49,968.26,969.49,969.73,969.73,973.49,976.73,980.19,983.13,983.83,979.66,980.96,980.49,981.49,979.79,978.33,977.33,978.33,980.79,981.73,982.33,978.86,976.4,978.63,977.86,981.63,981.33,980.56,981.79,984.79,986.96,985.19,983.73,981.26,977.26,981.73,982.73,983.19,980.66,978.66,976.89,979.36,981.13,979.66,975.96,976.03,974.03,976.79,977.26,979.89,981.36,976.89,975.26,972.56,975.03,978.89,975.56,977.4,973.16,975.33,975.79,976.03,975.79,974.56,972.63,975.33,976.16,978.79,978.66,975.96,971.73,973.96,973.33,973.4,976.16,976.56,973.66,977.66,977.86,974.83,970.66,971.36,972,973.4,975.79,977.43,977.66,975.66,975.43,975.66,978.66,978.19,977.49,973.96,974.13,977.76,980.69,983.86,987.72,988.96,988.72,994.72,997.59,1001.5,1000.1,1000.5,1002.4,1004.9,1006.2,1005.8,1009.2,1007.6,1008.3,1011.8,1010,1010.6,1008.6,1007.3,1005.3,1007.6,1008.2,1006.3,1000.4,998.49,1000.2,1004.4,1009.7,1012.4,1010.1,1005.4,995.96,993.86,990.16,990.39,987.26,983.96,982.42,982.42,980.49,978.32,977.16,979.39,977.56,980.49,980.32,978.92,976.76,974.06,971.53,975.92,975.02,980.02,981.49,978.42,974.42,977.96,980.49,979.02,979.49,979.19,974.66,972.89,972.36,967.29,961.29,957.52,950.99,943.75,944.29,953.06,972.22,994.45,1020.8,1061.7,1114.8,1171.3,1213,1230.5,1212.7,1157.2,1079.5,1010.9,968.69,951.82,954.06,963.22,975.09,975.92,973.99,972.82,972.75,976.39,979.79,977.85,976.45,972.29,970.29,970.52,974.52,975.22,972.45,972.22,969.52,971.69,974.69,973.99,972.99,969.99,969.99,969.99,971.59,973.12,973.59,969.36,968.36,971.06,973.99,973.52,972.59,970.59,970.29,971.22,973.69,974.75,973.06,969.59,966.59,968.59,971.06,969.82,971.06,969.75,968.45,967.75,970.29,973.75,971.96,969.49,968.66,969.82,972.75,974.99,970.06,968.06,968.75,969.52,969.75,971.29,967.82,969.75,968.22,971.22,972.99,971.52,972.29,972.29,970.06,972.06,972.82,971.89,969.42,968.19,966.82,966.82,969.36,968.89,966.66,964.89,961.89,962.89,963.89,964.42,965.12,961.59,962.59,962.59,964.36,964.59,963.29,963.12,959.72,964.19,963.96,968.12,972.06,972.75,975.75,978.59,982.49,983.26,984.96,984.42,983.72,987.02,990.72,993.19,992.42,992.66,988.89,992.36,994.59,994.42,990.19,992.42,991.19,991.96,994.19,995.66,995.66,992.89,993.36,994.12,995.02,993.16,993.16,993.56,992.42,992.72,997.29,996.36,992.19,989.56,987.32,990.49,991.66,993.66,992.19,990.19,988.96,987.96,990.02,989.49,988.96,987.96,985.66,985.19,986.26,986.56,986.26,987.19,984.96,986.19,988.19,985.72,986.26,982.79,982.09,982.69,985.86,987.96,988.66,984.66,982.72,984.19,984.56,984.02,984.72,983.72,982.96,983.49,984.49,984.26,984.79,984.02,983.26,984.49,986.02,987.56,983.32,985.79,982.49,983.96,988.66,987.59,986.06,985.36,982.96,983.72,983.72,986.42,985.96,983.49,983.02,984.02,986.49,986.96,988.36,985.36,984.89,986.89,987.19,989.66,990.36,991.89,987.42,989.49,994.49,998.49,998.02,997.02,996.02,998.26,1003.4,1004.4,1005.2,1006.2,1006.2,1007.7,1011.4,1010.6,1009.9,1005.2,1003.4,1002.9,1005.1,1008.4,1001,1000.3,999.02,1003.2,1008.9,1011.1,1006.2,998.96,994.96,992.72,990.89,990.12,987.36,984.19,984.72,985.96,985.36,986.52,985.99,983.12,981.19,981.96,983.42,987.82,987.75,985.99,982.59,981.89,981.66,983.42,982.89,982.59,980.82,983.12,982.19,981.02,981.26,981.19,980.82,978.82,977.82,970.82,962.36,955.59,952.59,948.06,943.89,950.36,968.82,995.82,1024.4,1063.9,1110.9,1165.7,1211.5,1240.8,1236.3,1207.1,1139.9,1054.4,991.19,961.89,956.89,965.66,974.42,979.12,979.36,977.59,975.12,976.29,977.75,978.06,977.89,976.42,973.66,974.82,977.29,978.29,977.36,973.89,971.19,973.42,972.02,971.26,972.72,972.12,969.82,972.52,973.29,976.06,972.82,971.42,970.42,971.36,973.99,974.99,974.52,973.06,971.06,973.59,974.12,976.59,975.89,974.19,973.36,974.12,976.66,975.96,975.96,974.72,972.49,976.66,973.36,977.06,978.06,975.36,972.42,972.42,973.89,975.66,975.19,973.89,973.06,974.99,975.06,976.59,975.36,974.82,973.59,975.59,976.52,976.66,975.72,976.49,971.49,976.49,977.19,979.36,976.59,975.12,970.89,972.89,976.12,975.89,975.26,971.56,971.02,971.96,971.26,971.02,976.36,974.82,972.82,975.82,977.12,975.42,975.89,972.89,970.12,976.82,977.82,979.82,976.59,973.89,974.66,976.42,977.96,981.66,982.59,986.06,984.66,986.02,985.62,989.56,993.42,994.82,993.06,994.42,995.72,994.66,996.52,996.06,992.42,991.26,994.66,997.06,995.36,994.36,992.89,993.12,994.66,995.12,994.59,992.66,989.96,990.49,993.89,995.36,994.12,993.19,990.96,993.42,994.89,995.42,994.66,993.82,989.36,989.66,993.42,998.06,998.06,996.59,994.59,994.36,997.12,998.36,997.66,997.42,994.42,998.59,1003.1,1004.8,1004.8,1001.8,1002.1,1003.1,1008.1,1006,1000,999.42,1004.9,1010.4,1008.9,1006.7,1004.7,1003.1,1001.7,999.79,998.56,996.89,995.29,989.29,986.89,985.96,987.49,984.19,982.89,982.59,980.52,979.29,980.29,983.45,982.45,977.29,974.12,976.12,977.82,978.82,976.72,975.02,973.02,976.56,980.89,980.36,980.36,981.36,978.36,981.82,981.59,983.59,981.29,982.29,977.29,979.06,976.12,971.59,965.82,956.36,947.36,947.59,941.59,936.42,942.42,962.12,991.29,1024.8,1057.8,1104.1,1153.8,1197.9,1219,1225.9,1198.6,1131.8,1045.9,983.66,954.66,956.42,969.99,978.92,980.69,975.99,972.75,976.29,974.29,976.36,973.66,972.12,971.52,974.99,976.29,975.29,975.75,974.22,972.29,970.59,971.36,974.06,974.29,973.52,972.52,974.29,975.52,974.99,977.15,971.92,968.99,970.82,970.06,974.99,975.45,975.45,972.99,972.99,975.69,978.69,976.52,973.52,973.69,976.85,975.79,976.62,974.22,970.75,969.75,972.45,977.39,978.09,979.09,973.92,973.69,973.99,974.29,976.29,977.29,973.75,973.75,975.52,976.75,978.69,976.69,975.45,973.22,973.92,977.15,978.39,975.39,975.92,973.22,974.69,975.29,976.75,976.22,975.15,973.62,975.09,976.85,978.39,977.92,976.22,971.75,973.52,972.99,975.45,973.69,972.45,969.39,970.15,972.45,972.52,971.29,971.06,968.82,971.59,973.82,977.22,976.69,974.92,973.15,977.32,980.62,979.45,978.75,975.29,977.82,980.82,983.52,984.29,985.06,984.75,981.99,985.52,987.99,991.22,991.99,991.99,988.29,988.59,990.06,993.39,994.09,987.92,988.45,984.45,988.69,990.22,989.75,991.29,989.82,989.82,992.06,991.29,991.99,990.22,988.75,987.29,989.06,991.29,989.29,988.45,988.92,988.39,990.22,990.45,990.99,986.99,984.99,986.22,988.15,984.92,982.45,980.45,979.22,984.45,985.92,985.69,983.99,980.29,978.59,979.82,980.52,984.92,983.15,980.69,982.52,980.29,982.06,984.06,983.52,981.75,978.29,982.99,983.22,983.45,984.45,983.22,981.75,980.75,981.66,979.42,982.06,980.06,978.06,980.36,981.06,982.99,982.69,981.69,974.29,974.36,979.82,979.82,978.06,978.52,974.99,977.75,978.06,982.52,985.45,985.15,982.15,981.22,982.06,981.12,984.12,979.59,979.52,979.52,979.82,978.42,976.49,974.49,972.96,972.72,980.22,980.15,978.69,978.99,977.52,979.52,981.52,981.52,980.75,979.75,978.99,981.22,982.75,984.52,982.82,983.12,980.66,981.89,981.36,979.36,981.12,979.36,977.36,978.19,977.49,979.42,979.12,976.59,976.59,978.75,981.82,979.89,979.59,979.06,977.06,978.29,977.89,979.12,979.66,979.36,979.82,982.06,984.99,983.06,982.12,979.89,979.82,980.29,978.12,981.66,979.89,982.06,979.59,980.36,979.12,981.66,983.42,984.89,985.36,989.36,990.36,991.12,990.12,992.59,991.06,994.36,996.12,998.36,1000.4,1000.4,999.59,998.59,999.66,999.19,998.42,994.42,992.66,994.42,996.19,998.96,995.19,992.19,986.19,989.96,990.96,996.42,998.12,997.59,994.36,990.89,988.66,987.66,985.96,979.72,976.19,977.89,977.66,976.02,975.26,975.49,975.26,973.26,977.96,975.89,975.89,970.89,966.19,969.66,968.32,971.32,973.26,969.49,966.49,968.02,970.96,970.49,970.02,967.72,963.26,960.79,957.79,950.56,951.09,943.62,935.02,934.26,943.79,964.79,987.79,1010.8,1044.8,1091.9,1144.4,1190.9,1217.3,1225.6,1206.1,1160.1,1093.3,1034.1,991.32,963.56,948.32,938.32,940.62,947.39,954.86,957.16,956.69,959.69,962.69,965.62,966.56,965.32,962.92,961.46,962.92,962.09,962.79,960.79,958.79,958.79,962.09,962.32,962.79,960.02,959.79,959.86,962.39,961.86,961.86,962.39,957.23,957.23,960.69,960.16,961.56,959.79,960.02,961.79,962.79,962.39,960.23,960.92,959.62,964.32,961.62,961.92,960.46,958.92,958.69,960.23,960.23,963.23,961.23,960.46,955.23,957.69,958.62,962.56,961.62,958.69,958.46,959.69,961.62,965.56,965.32,962.86,962.39,962.69,965.69,966.16,964.62,963.92,961.23,960.23,965.23,964.53,964.06,964.76,959.99,962.99,964.92,963.92,959.99,955.36,951.83,953.53,955.99,955.46,954.46,952.53,948.53,946.53,950.53,947.53,945.99,947.69,944.16,945.53,947.59,946.83,947.13,943.89,943.89,945.89,948.13,952.59,952.59,950.83,951.59,956.59,958.13,958.89,962.36,961.89,963.66,965.66,967.66,972.89,974.36,973.59,974.83,976.13,977.19,978.89,983.59,981.06,981.36,982.66,983.43,983.36,983.36,982.13,976.96,980.73,979.73,980.19,979.19,978.19,978.19,978.66,982.59,983.29,980.89,977.73,975.79,976.79,977.49,979.26,977.33,976.49,975.73,976.26,978.33,977.56,978.03,975.03,975.26,977.03,977.96,978.49,977.56,975.63,970.4,970.93,970.7,972,970.46,969.4,969.86,970.33,972.33,973.86,972.7,970.7,969.63,972.63,972.7,973,972,970.46,969.7,969.7,970.53,970.83,971.6,965.6,966.36,968.83,971.06,969.76,969,966.53,962.3,964.06,968.6,968.6,967.6,966.36,965.06,966.3,968.83,967.2,965.5,963.27,964.43,967.13,966.36,968.66,967.66,965.43,964.96,964.5,967.5,967.96,967.43,963.9,962.9,967.13,969.27,970.33,970.17,974.87,973.33,975.57,974.8,977.57,978.4,980,977,979.47,981.4,984.33,985.57,982.87,979.47,980.47,981.17,983.17,981.63,978.33,978.33,979.57,976.63,976.23,981.23,983.93,984.87,981.17,975,972.6,969.9,966.37,963.83,959.83,960.83,959.83,959.37,955.83,955,957.17,960,961.3,959.07,958.77,957.77,957.07,957.13,957.67,956.67,956.37,953.37,953.37,956.9,958.6,954.6,953.37,951.37,950.44,951.97,953.2,949.5,943.04,934.8,927.1,923.87,921.34,916.27,911.74,923.2,947.2,978.2,1007.7,1049,1099,1148.7,1191.4,1206.3,1192.6,1141.9,1063.6,986.1,937.1,921.17,926.7,933.4,941.04,945.04,944.8,944.57,946.87,946.94,944.24,940.24,938.94,943.4,943.64,943.64,943.64,940.17,942.4,944.64,945.87,942.87,944.4,941.7,945.94,945.77,948,945,946.17,945.94,944.54,943.91,943.14,943.84,943.84,941.84,944.84,941.37,943.84,945.54,944.47,943,941.54,943.07,944.07,945.54,944,941.54,942.37,939.91,941.37,942.37,942.61,942.54,943.31,943.84,944.37,942.37,942.61,943.14,944.37,944.44,943.91,944.44,943.44,938.44,939.91,942.37,943.14,942.44,938.97,937.74,940.44,944.61,943.61,942.61,940.61,935.91,940.14,940.37,942.21,941.21,938.44,936.21,937.67,941.14,941.14,941.91,939.67,937.67,938.14,939.84,942.31,941.84,938.67,936.44,936.97,939.37,941.91,939.44,941.14,940.91,944.97,947.51,949.51,952.21,952.67,953.61,957.31,960.07,961.67,958.97,959.21,958.21,961.91,962.14,964.14,965.14,963.91,964.14,965.91,965.44,968.44,965.97,965.74,962.27,965.27,964.51,966.27,964.51,962.97,961.44,963.44,965.21,965.21,963.74,962.44,960.67,964.14,962.91,964.67,965.67,961.67,960.67,962.67,964.14,960.97,960.81,959.11,956.11,957.27,960.67,963.37,961.61,959.61,955.37,957.37,961.37,959.91,957.67,957.91,954.84,957.84,960.07,960.31,957.31,956.61,952.14,955.14,958.91,959.91,956.67,954.44,954.44,952.91,956.91,957.14,955.37,952.21,951.67,954.37,956.61,956.14,954.91,954.67,953.21,955.67,956.37,957.21,956.97,954.97,953.74,953.97,958.21,958.97,957.97,955.21,955.44,959.37,958.14,959.44,957.74,957.74,953.21,954.97,958.91,960.67,958.67,958.21,954.21,956.91,958.44,960.21,959.97,959.97,963.21,966.21,971.44,971.97,971.51,970.97,970.21,974.67,979.14,976.91,976.44,979.21,978.21,977.21,976.44,976.21,974.74,972.74,971.21,974.21,974.97,972.74,974.74,976.21,978.44,983.67,977.51,972.51,968.81,967.27,963.27,960.81,960.04,960.27,957.04,954.57,950.57,950.81,953.11,953.11,953.11,952.57,950.81,951.04,951.81,953.57,951.34,949.57,946.57,950.57,951.11,951.71,951.94,952.17,947.71,947.71,950.17,948.64,939.94,928.94,923.17,918.17,913.48,909.24,918.71,939.01,966.78,1003.8,1046.8,1102.8,1154.5,1192.5,1202.8,1176.3,1110.4,1021.5,953.24,923.78,920.54,934.84,943.14,945.84,943.84,940.38,939.38,940.84,942.61,941.44,940.91,939.14,937.38,939.38,940.38,938.91,940.91,937.91,934.91,934.44,938.38,938.91,938.68,938.38,934.61,936.14,938.38,939.84,940.08,938.08,938.14,936.91,940.38,941.14,940.14,939.61,936.61,939.84,940.84,941.61,940.38,937.61,937.84,940.08,941.84,942.38,943.61,939.84,937.84,939.84,939.84,942.61,941.61,942.61,941.38,941.38,943.08,946.31,943.84,940.84,941.61,942.14,940.38,943.84,942.84,940.91,937.91,940.14,941.14,939.91,941.68,940.68,939.91,939.14,939.38,942.61,941.84,941.84,940.84,940.61,940.38,940.61,941.61,938.38,936.91,940.08,940.31,942.08,941.84,939.84,940.31,939.31,943.78,945.01,944.54,942.54,940.31,947.54,948.54,952.31,952.54,951.54,952.08,951.61,953.14,953.38,953.61,956.61,956.84,960.08,962.84,963.61,964.38,961.61,959.61,963.84,966.08,967.54,963.54,961.54,959.84,960.78,962.01,963.78,963.31,963.08,960.08,961.08,962.78,964.01,964.78,962.78,959.78,960.31,961.01,963.01,963.78,961.78,958.31,960.84,963.31,963.31,962.31,959.84,957.08,958.31,959.31,958.31,957.54,960.01,957.01,958.54,959.08,958.31,960.01,956.48,954.24,954.78,954.78,958.01,957.01,955.01,952.01,953.78,957.71,955.48,957.71,956.41,954.64,957.41,960.41,959.41,958.41,956.48,953.24,955.48,956.17,957.71,957.48,953.48,954.24,954.01,956.24,957.24,954.71,954.94,954.48,956.48,957.71,961.17,961.94,960.71,957.48,956.71,958.71,958.48,957.17,957.34,958.04,959.04,962.27,961.74,962.27,958.27,958.81,961.87,967.11,972.34,969.34,972.34,970.57,975.81,975.34,978.04,979.51,981.51,982.51,982.27,985.27,986.74,985.97,980.74,978.74,979.27,979.27,979.97,979.97,978.97,977.44,979.74,985.51,987.74,984.74,973.27,969.81,969.81,967.74,966.97,965.21,962.21,961.97,958.74,960.74,961.97,962.74,961.74,959.21,960.44,960.21,962.44,962.44,960.74,958.74,957.21,958.67,958.67,958.44,957.44,955.14,956.61,958.37,958.97,957.97,953.21,948.67,943.44,937.21,933.21,929.21,919.97,915.74,924.74,948.44,975.67,1004.2,1043.2,1097.2,1153.7,1186.9,1196.1,1170.1,1113.1,1034.4,967.97,935.74,929.74,938.74,944.51,948.97,951.21,951.44,953.91,952.21,951.51,949.27,952.51,953.97,954.67,955.67,955.44,950.97,952.97,953.97,955.44,953.74,951.27,948.04,949.04,948.27,951.27,952.97,948.51,949.27,951.27,950.27,951.74,950.97,951.51,949.04,953.57,953.81,954.81,952.81,950.81,951.27,952.51,954.27,951.81,949.11,948.64,945.41,948.41,949.64,950.64,947.34,946.87,944.94,945.94,948.17,950.17,950.17,950.41,951.17,952.17,953.71,951.48,949.24,947.31,947.08,946.54,947.48,946.71,948.48,946.24,944.78,948.78,949.24,951.08,946.84,948.54,946.78,947.54,948.84,949.84,946.61,943.14,940.14,938.91,944.68,944.38,944.68,941.44,938.68,941.68,941.44,945.21,945.51,941.28,941.04,942.04,945.04,947.81,946.88,947.11,946.34,949.88,950.88,955.88,954.41,953.95,952.41,956.88,957.65,960.41,960.18,957.71,958.25,960.01,960.78,961.78,961.55,959.78,957.78,958.55,959.31,962.31,960.31,959.08,954.61,954.61,955.91,954.45,953.45,952.45,950.45,952.45,953.21,953.75,953.51,951.51,949.28,950.58,950.05,951.82,948.35,950.82,948.12,949.18,947.48,949.95,949.18,946.42,945.35,945.18,943.78,943.48,941.25,939.55,941.08,940.85,942.62,940.38,940.85,939.08,937.62,939.45,936.52,938.05,938.75,937.99,936.22,938.22,939.75,937.29,937.82,936.05,935.29,934.82,935.82,938.12,937.42,938.42,934.95,937.72,935.72,934.72,936.72,935.72,933.25,935.02,937.25,938.02,937.02,934.25,931.79,931.09,934.86,934.32,937.86,932.39,929.92,930.92,936.92,938.69,942.46,942.22,941.46,942.46,943.99,947.76,949.52,948.82,945.59,948.82,951.82,951.82,950.36,950.36,946.59,944.82,945.66,946.66,944.89,941.89,937.96,938.49,941.26,947.26,946.79,940.56,933.33,934.56,934.79,929.86,926.86,924.09,920.63,919.69,922.46,924.23,925.23,924.23,921.46,921.46,922.69,922.46,919.99,917.99,917.23,916.76,915.83,916.59,915.59,913.06,914.29,915.59,913.66,915.66,915.9,915.13,912.13,908.43,902.96,898.96,895.26,888.56,878.8,875.03,885.03,904.56,930.56,959.33,999.1,1053.6,1104.9,1138.3,1149.8,1125.9,1062.9,986.93,929,897,886.7,887.46,893.23,901.46,904.53,905.3,904.53,904.53,901.53,899.53,902.83,902.3,902.3,901.6,900.9,904.37,904.83,906.6,902.13,901.9,900.9,903.43,903.43,904.9,902.9,900.9,899.2,898.97,899.73,899.97,897.5,897.57,895.1,894.1,897.1,895.87,896.87,893.17,892.93,893.47,898.7,898.17,896.4,895.17,894.7,895,894.54,896,892,892.3,891.3,893.3,894.3,893.07,893.84,891.6,890.37,890.14,893.37,893.84,892.6,891.37,891.37,891.9,894.9,897.14,894.9,893.9,892.37,893.37,894.2,893.74,892.74,891.5,891.27,889.5,889.5,888.27,885.8,885.5,884.2,884.44,884.5,886.2,884.2,880.5,876.5,878.27,881.5,883.8,881.57,878.57,880.57,879.57,883.57,883.34,883.57,882.57,882.11,885.11,885.34,891.8,893.8,891.57,893.87,896.11,897.64,900.87,900.87,902.87,903.41,901.94,905.47,907.94,907.64,909.17,907.94,908.47,907.77,909.94,910.17,909.71,908.71,908.71,909.71,912.71,912.71,910.71,907.77,908.77,911.24,912.17,910.77,907.31,904.77,904.54,905.31,909.31,907.31,904.31,902.31,903.07,907.01,907.77,905.54,904.54,904.54,902.84,904.61,905.84,904.31,904.31,902.07,902.84,903.07,906.07,904.84,903.61,902.37,903.14,903.37,905.37,904.61,901.84,899.61,900.14,899.91,900.44,902.61,899.84,897.14,898.14,900.37,900.61,902.61,898.37,898.61,899.61,902.61,903.37,903.14,900.14,898.14,899.61,904.61,902.14,902.67,900.91,898.14,898.37,898.61,900.61,899.37,898.67,897.61,899.84,901.61,902.37,901.14,900.14,898.21,900.44,901.91,903.37,902.37,900.91,899.21,900.67,901.91,904.67,904.67,902.67,901.44,903.21,908.14,908.91,910.44,909.14,909.37,912.84,916.14,916.14,917.37,916.37,917.14,919.37,921.37,923.37,923.37,922.84,921.61,920.37,920.37,921.37,919.67,919.21,917.67,917.67,915.44,921.67,919.67,917.67,913.14,917.37,922.14,925.44,922.91,919.37,912.61,909.61,908.14,907.14,902.67,899.67,900.67,897.37,899.61,897.61,900.37,900.54,901.07,899.61,899.84,902.84,903.61,901.07,900.61,898.84,901.31,901.54,899.54,899.31,893.31,894.07,898.84,899.61,899.84,897.84,894.84,897.77,897.24,895.47,889.01,880.77,876.24,872.01,869.94,864.71,862.77,874.77,901.01,932.54,968.24,1016.2,1069,1114,1143.2,1153.7,1133.7,1071.2,990.24,920.94,881.24,875.24,882.71,890.01,893.77,893.24,891.71,890.71,895.47,895.24,892.24,891.47,889.47,890.47,893.71,893.17,893.41,893.71,890.71,892.24,892.87,894.64,893.87,891.87,892.87,895.11,895.64,895.64,897.11,897.11,894.11,894.87,896.41,897.87,898.34,898.57,896.57,896.34,896.57,898.57,897.8,896.27,895.04,896.8,899.04,898.97,899.27,898.04,895.04,894.04,897.04,899.27,900.5,899.5,895.97,895.74,899.67,900.2,900.27,898.2,896.67,897.2,898.67,900.67,899.44,897.9,898.14,897.14,897.44,900.67,900.9,899.14,899.14,900.37,902.37,901.84,903.07,900.84,898.07,899.77,901.77,900.07,899.77,900.24,897,896.47,898.47,899,898.24,896.47,894.7,898.7,896.7,897.47,899.47,896.24,896,897.47,899.47,901.93,904.4,906.93,908.4,912.1,915.87,916.4,916.4,918.57,917.33,919.33,919.57,923.8,924.8,921.57,920.57,923.57,925.57,925.87,925.57,924.27,923.97,927.73,929.5,927.27,928.03,926.5,923.97,926.97,926.5,926.5,926.97,925.97,924.2,924.73,928.73,926.97,928.43,927.67,923.2,923.97,923.2,925.13,925.6,923.13,921.13,923.37,926.07,925.07,925.07,923.3,921.83,921.6,922.6,922.53,922.6,921.83,919.76,921.76,922.53,925.07,924,921.23,922.23,922.23,921.7,922.7,922.76,919,917.23,918.7,918.93,922.93,921.46,918.93,917.16,918.4,920.33,922.1,921.86,918.86,917.86,919.1,918.33,924.1,922.1,922.33,919.33,921.03,923.03,922.56,925.26,921.5,918.96,920.26,922.26,922.5,922.73,920.96,918.96,919.73,922.9,924.66,925.2,921.66,921.13,924.36,925.13,927.13,926.59,926.59,924.06,927.29,927.53,929.29,927.06,926.59,923.59,925.83,928.83,930.53,931.06,929.59,933.29,937.53,940.99,938.53,938.53,938.76,938.23,943.23,943.46,944.93,947.93,947.93,945.93,946.93,950.09,948.33,946.39,945.63,944.09,944.56,949.33,949.56,948.49,945.49,946.49,951.49,954.96,955.96,949.72,941.49,937.49,935.72,934.96,933.96,931.19,929.66,926.66,927.66,926.89,929.89,927.12,926.59,924.36,926.29,927.29,927.82,928.59,924.36,923.59,924.36,927.76,926.52,927.06,925.76,925.99,927.46,927.46,928.69,927.69,926.39,920.62,916.39,909.62,907.62,905.86,906.32,901.55,900.79,894.79,886.79,882.02,888.02,897.86,921.55,947.02,972.55,1008.8,1054.3,1102.3,1146.4,1170.4,1176.2,1144.4,1083.9,1002.1,942.12,912.59,909.35,912.82,922.82,923.82,925.82,925.82,925.82,928.29,928.52,926.75,923.52,927.52,928.52,927.52,927.99,925.99,924.22,929.22,927.99,930.22,926.92,925.92,926.45,930.45,931.62,931.08,930.08,926.38,928.62,932.08,933.32,932.32,930.55,927.78,930.78,932.78,932.78,931.48,928.18,926.72,928.32,932.32,930.78,932.95,934.42,932.65,932.42,934.88,936.65,936.42,932.18,933.42,930.42,934.42,934.35,933.58,933.82,933.05,934.35,935.12,934.82,934.75,931.21,932.45,934.28,936.05,940.51,935.51,936.21,931.68,932.68,933.45,936.45,937.61,936.85,934.85,936.38,938.38,937.38,939.61,937.85,935.85,935.38,936.15,935.61,934.08,932.31,933.78,934.55,936.08,937.01,938.48,938.71,933.01,936.25,937.71,940.71,938.01,938.78,936.31,940.78,943.95,947.88,948.65,948.71,946.25,949.25,953.41,955.88,954.65,954.88,958.58,960.28,961.28,962.28,961.81,958.58,958.58,957.04,962.04,962.04,961.04,959.58,957.81,959.04,962.81,963.28,965.74,963.98,962.74,963.74,964.21,963.68,962.68,959.44,955.74,956.98,960.21,959.68,960.38,960.38,958.68,958.91,959.44,962.14,960.08,956.14,954.14,957.08,959.08,961.31,957.78,959.31,955.78,958.01,958.08,959.08,960.54,959.01,952.08,954.08,955.78,956.78,958.24,955.71,952.24,953.78,953.54,954.78,954.01,953.71,952.41,952.48,953.48,956.94,956.41,956.64,952.41,955.64,958.11,956.87,957.41,955.64,952.87,955.11,955.11,957.81,959.04,955.87,953.64,955.64,955.87,958.11,954.11,953.41,951.11,952.34,954.11,956.57,958.27,954.97,954.97,956.44,959.97,958.57,957.57,954.57,957.27,958.27,961.04,964.04,965.04,968.27,969.74,968.51,970.67,971.44,970.21,972.21,971.21,974.67,976.67,981.21,979.74,976.74,974.74,976.74,977.21,975.74,976.51,973.97,973.51,975.97,975.91,972.91,973.14,971.91,974.97,977.97,981.44,980.14,975.14,970.14,967.37,967.14,968.91,968.67,964.91,959.14,956.14,955.14,957.84,957.61,956.61,953.61,951.84,954.31,953.61,955.07,955,953.77,951.54,952.77,953.54,953.61,955.14,951.14,949.61,949.84,952.84,954.84,954.07,950.31,947.31,942.54,936.77,933.47,927,916.54,911.07,914.77,928,952,973.77,999.54,1042.3,1096.3,1144.5,1174.8,1184.5,1166.2,1113.9,1044,988.24,951.7,931.94,927.94,931.24,937,940.7,943.94,944.17,943.94,942.4,946.64,947.4,945.64,945.34,946.57,943.1,948.1,947.87,948.4,947.4,947.64,944.4,946.64,947.1,945.57,947.57,946.57,945.8,946.04,947.1,949.1,949.57,947.8,948.27,949.74,949.8,950.57,949.34,945.57,945.8,945.8,945.5,946.5,947.74,944.5,945.2,945.2,945.74,946.74,945.97,944.44,944.44,945.44,944.2,944.97,946.97,946.97,945.74,946.74,946.74,948.74,947.97,948.2,943.97,944.97,946.74,948.5,947.97,946.44,945.67,947.67,947.2,948.97,946.97,945.97,945.44,947.9,949.67,951.67,949.9,947.37,946.13,946.67,946.2,949.44,946.67,944.13,939.9,941.67,941.67,942.9,942.9,941.67,939.9,943.6,942.83,944.83,942.37,941.6,942.07,943.07,943.37,945.9,947.83,949.53,950.77,955.53,956.07,956.83,956.83,957.07,959.53,960.77,967.23,971,969.77,967.53,967.23,967.23,969,972.23,971.47,968.7,967.17,967.4,971.4,970.93,970.93,971.93,970.7,968.93,972.4,973.63,973.63,972.4,969.17,969.17,969.93,969.93,971.87,967.4,966.4,966.87,970.1,971.33,971.8,969.8,969.27,968.5,970.57,974.57,974.33,970.33,970.33,968.8,971.27,970.33,969.57,967.03,964.27,966.27,965.03,966.27,966.96,964.43,964.43,966.96,968.2,968.66,965.43,966.2,966.2,964.96,968.9,969.66,968.2,966.66,965.9,966.36,966.6,968.36,968.13,966.66,965.13,964.83,964.83,967.83,968.06,965.83,963.83,966.3,968.53,971.53,968.53,968.53,969.3,970.53,970.76,971,970.53,969.3,967.83,966.76,969,972,969.76,968.53,968.53,967.53,971,971.76,973.23,971.23,968.46,968.46,972.76,975.53,975.76,975.76,975.23,979.93,980.63,984.16,986.46,982.76,981.76,986,992.46,993.46,993.93,991.63,989.63,990.16,991.16,990.86,989.86,987.63,985.93,982.4,984.63,985.4,988.63,989.86,988.86,985.86,981.63,980.86,979.86,973.86,970.1,971.79,971.79,972.03,970.79,967.79,967.56,969.33,968.79,971.26,969.26,966.79,964.56,965.33,966.56,970.79,968.03,965.03,964.03,964.26,968.03,970.26,968.26,966.49,965.73,966.96,967.96,968.49,966.03,961.03,953.26,949.26,946.49,945.26,937.73,931.73,935.73,952.73,977.73,1006.2,1038.4,1080.7,1129.4,1175.2,1205.7,1213.2,1193.4,1140.9,1066.1,1002.1,965.89,951.89,946.19,948.73,953.43,958.66,960.43,962.19,960.89,961.36,959.89,963.89,964.89,967.36,965.36,964.13,959.89,961.89,964.36,964.13,963.36,963.36,957.59,960.59,962.13,962.89,960.89,958.13,956.13,957.13,961.59,960.13,957.89,961.13,958.13,959.13,960.59,960.36,961.13,959.36,960.53,961.99,964.23,963.76,963.53,961.29,959.76,961.53,962.53,966.99,964.99,962.99,959.76,961.76,961.53,962.53,961.06,960.76,957.99,959.29,960.29,962.53,961.76,960.29,957.06,959.29,959.29,960.53,961.99,963.46,961.69,960.23,960.29,962.53,964.53,964.29,960.29,962.53,961.76,961.76,961.99,959.46,959.92,958.23,962.46,960.92,956.69,955.46,953.46,953.46,952.99,953.46,953.92,952.92,948.69,949.69,954.46,955.46,954.69,955.69,955.92,958.69,961.69,963.69,966.69,966.16,967.16,970.39,974.86,974.39,974.92,972.69,971.23,976.16,979.86,982.32,981.62,981.16,979.16,980.86,983.62,985.92,984.39,983.62,983.62,983.62,984.86,985.62,985.86,984.39,981.62,984.56,984.32,985.62,983.39,982.56,980.79,982.79,983.56,983.32,984.32,981.02,979.26,981.49,985.72,986.96,984.72,981.02,980.49,981.19,982.42,984.66,983.89,982.12,979.12,980.12,983.12,985.12,983.42,981.42,977.66,976.66,980.42,982.19,983.66,978.42,979.19,982.42,983.42,983.42,986.42,983.42,979.19,980.66,982.36,983.36,984.36,980.89,976.89,978.66,979.89,981.36,982.36,977.66,978.19,978.19,980.66,982.12,980.12,979.89,977.42,979.59,982.82,982.59,981.82,980.82,979.36,980.36,981.82,984.82,985.29,981.29,983.52,984.99,986.75,984.52,983.29,982.75,981.75,982.52,986.22,986.99,986.99,987.45,987.45,991.99,995.29,997.52,996.75,995.75,995.45,998.69,1001.7,1004.2,1005,1005,1005.5,1006.5,1008.5,1009.7,1007.7,1005.5,1002.2,1002.2,1005.5,1005.9,1004.9,1001.1,1000.9,1005.9,1007.9,1009.2,1001.4,995.39,993.62,989.85,991.85,989.39,988.39,986.09,982.85,981.85,984.32,986.32,987.09,988.09,983.32,983.85,985.85,989.02,984.79,985.55,980.32,981.25,983.49,983.72,986.72,982.49,980.49,983.49,981.55,984.32,981.79,980.25,979.72,980.19,977.19,970.72,963.25,959.25,952.25,945.02,951.25,969.49,995.95,1026.4,1059.2,1108.7,1163.3,1208.3,1234.3,1237.5,1197,1127.8,1050,991.79,965.72,962.19,969.42,977.95,980.95,981.42,979.95,977.25,976.25,974.79,978.42,975.19,979.42,977.72,975.49,975.25,978.19,980.42,980.42,977.12,976.65,977.19,980.65,981.65,980.42,975.95,975.42,977.42,978.19,980.19,978.19,974.95,975.95,975.95,978.19,979.42,978.19,977.95,975.49,975.42,977.89,981.35,978.65,977.19,977.95,979.95,979.72,982.19,982.65,981.42,977.95,979.25,978.49,979.95,981.19,979.65,977.89,977.65,979.89,984.89,982.65,981.12,978.12,978.12,979.89,982.35,983.58,981.35,979.35,982.35,984.35,985.35,984.89,982.65,980.65,982.65,982.89,985.12,983.65,982.65,978.12,979.12,977.12,984.35,982.05,978.12,975.89,978.58,979.58,982.89,981.65,981.12,977.12,980.89,982.89,983.19,983.72,983.95,987.19,986.42,993.65,995.65,995.89,996.42,994.49,998.95,1001.7,1002.1,1004.1,1001.9,1000.7,1001.4,1000.4,1004.9,1003.9,1002.4,999.19,999.19,1002.7,1002.7,1003.2,1002.2,998.95,999.95,999.95,1005,1004.7,1001.7,999.95,1002,1004.2,1003.2,1001,998.95,997.95,997.19,1001.4,1001.4,1002,998.72,997.19,996.42,1000.4,999.95,999.95,997.72,996.72,996.95,997.95,1000.5,997.72,998.72,995.49,995.49,996.72,999.25,998.79,994.49,993.72,995.49,995.49,997.72,996.95,992.95,989.25,992.02,992.72,995.19,993.95,994.02,990.25,992.49,994.72,995.72,995.72,993.95,993.95,993.02,994.32,994.55,996.25,994.49,994.25,994.25,994.25,996.79,995.79,990.55,990.79,989.79,992.02,993.79,995.25,992.55,989.79,992.72,994.72,995.02,995.32,996.32,991.32,993.79,996.49,1000.8,1001.6,1003.8,1005.8,1008.6,1009.6,1010.3,1009.6,1010,1007.8,1009.6,1010.3,1014.8,1014.8,1015.8,1013.3,1016.1,1014.9,1017.1,1015.3,1013.3,1010.1,1009.9,1011.6,1011.3,1011.6,1009.6,1005.6,1006.6,1009.3,1014.3,1018.8,1016.8,1011.3,1006.5,1005,1003,1001,995.02,991.79,990.32,990.09,989.79,990.02,990.79,988.79,987.55,988.32,991.79,988.79,986.55,984.32,985.32,984.55,986.02,986.32,987.32,984.55,985.55,987.55,987.55,987.55,984.09,975.32,969.25,965.02,961.79,955.55,948.02,947.02,962.79,984.55,1013.3,1048.6,1093,1141.6,1189.6,1219.3,1220.3,1183.3,1119.1,1041.6,987.79,966.79,967.25,973.09,978.85,980.32,980.55,981.79,982.79,983.79,981.79,981.02,982.02,983.79,985.32,984.55,982.79,979.79,979.09,981.55,982.79,982.55,980.02,979.02,977.55,979.79,980.79,980.79,979.55,978.49,980.49,981.02,981.55,982.32,980.55,978.79,983.02,984.02,986.02,984.55,984.32,981.55,982.55,985.55,983.55,982.09,982.55,981.25,981.25,984.55,984.79,982.25,981.02,979.55,978.09,980.85,980.62,982.85,981.32,980.55,982.09,983.62,986.09,982.85,983.15,981.15,982.39,985.39,987.39,987.15,983.15,983.15,983.69,985.45,983.92,983.69,982.45,980.69,981.69,980.92,981.15,981.15,979.92,978.92,977.92,981.15,983.92,982.15,981.15,977.92,979.15,979.69,981.45,980.69,978.69,977.92,979.15,981.69,982.69,982.92,983.39,984.39,984.62,986.39,988.15,988.92,986.69,986.45,987.22,990.99,993.22,994.22,992.22,991.69,995.99,995.75,999.75,999.22,996.69,996.15,999.15,999.45,1002.2,999.75,999.75,997.99,999.45,1001.5,1003.2,1000.8,998.75,996.52,994.29,994.75,996.75,996.75,994.29,990.82,991.82,992.29,993.06,992.29,994.75,992.52,990.29,990.29,992.82,992.36,991.12,987.59,988.36,988.36,991.59,990.06,991.52,989.99,991.99,990.59,990.36,991.82,990.59,989.36,988.82,988.59,987.89,986.66,984.12,981.89,983.42,988.66,985.66,987.12,985.82,985.89,985.66,986.66,986.42,987.66,986.12,981.66,983.42,985.19,984.72,983.72,982.72,981.26,982.49,984.49,985.02,986.02,982.26,980.72,982.72,984.96,985.19,985.49,984.49,982.26,985.49,985.49,987.26,986.56,984.09,981.86,979.86,982.86,986.86,987.09,989.86,989.86,994.32,995.56,995.32,996.09,996.09,993.62,992.39,995.39,999.09,1001.1,1001.9,999.09,1000.1,1001.4,998.69,1001.7,999.39,998.86,999.86,1003.6,1003.9,1002.6,999.79,997.09,998.92,1005.6,1003.8,997.56,991.56,986.32,985.86,981.39,980.16,976.92,976.92,974.92,976.16,979.39,979.16,979.92,976.92,974.69,974.46,977.69,977.46,976.69,976.92,974.69,977.16,976.46,976.76,974.99,975.23,972.23,971.23,968.46,961.23,955.69,951.69,946.69,937.99,931.99,943.76,962.76,978.76,993.99,1016,1045,1086.5,1139.3,1181.3,1210.3,1230.3,1239.3,1222.3,1183.3,1128.3,1066.3,1015.3,976.06,957.83,952.29,954.29,959.83,961.83,965.59,969.83,970.13,965.36,964.83,964.83,963.06,965.29,963.83,964.83,963.36,964.43,965.89,968.59,968.06,964.06,959.89,962.19,963.66,965.89,968.13,964.66,964.19,962.96,964.96,961.43,962.89,962.13,962.13,965.13,966.66,964.19,962.66,959.66,956.19,960.19,962.19,960.73,963.19,961.43,960.66,961.66,963.66,962.66,965.19,965.66,963.89,966.36,965.66,965.19,963.96,958.96,959.43,960.66,961.19,963.96,963.96,962.49,959.49,959.49,962.73,963.66,965.96,964.03,960.26,963.96,965.19,966.73,967.73,964.73,962.19,959.19,960.43,960.43,959.26,955.03,949.26,951.26,949.73,950.49,953.73,951.73,949.26,946.79,950.79,950.03,952.26,951.03,948.03,951.49,955.43,958.96,959.49,957.79,959.79,960.26,968.49,970.96,972.73,972.26,973.26,975.96,979.43,982.96,978.96,979.49,973.79,976.79,981.79,982.03,982.26,980.26,975.79,979.79,980.79,982.03,980.79,978.79,975.79,979.33,980.33,979.33,980.79,979.56,979.56,979.1,980.4,979.4,978.4,978.63,976.63,977.63,974.16,977.16,975.93,971.7,972.4,973.63,974.4,975.93,976.16,975.4,970.63,972.63,972.93,972.46,970.46,969.7,967.7,967.93,970.46,973.16,972.7,972.7,970.46,972.7,972.46,973.46,972,972.23,968.76,969.3,967.3,969.3,969.53,968.23,965.76,966.53,967.53,969.76,969.76,969.3,966.3,968.83,969.83,971.53,969.83,968.83,964.3,963.83,965.13,968.66,967.36,964.83,966.83,968.06,969.13,969.36,966.83,966.36,966.9,966.9,969.66,968.43,968.43,970.9,966.9,973.9,977.83,979.6,982.13,980.43,979.43,980.96,981.5,984.5,987.73,985.96,984.96,987.27,989.57,989.8,987.03,984.27,983.27,980.27,983.03,986.03,984.03,982.03,979.03,981.03,985.03,987.8,988.8,985.33,980.1,978.33,978.33,976.33,970.87,966.17,961.93,961.93,962.17,960.7,960.47,957.93,956.7,960.23,960.77,962,963,957.77,958.23,961.47,961.23,961.3,961.83,959.6,959.83,958.83,960.07,959.83,959.6,958.13,954.9,955.9,952.83,946.3,937.83,932.13,924.67,917.67,916.97,929.74,956.74,984.74,1020,1067.4,1124.4,1173.5,1207,1207.5,1170,1097.3,1015.9,957.57,931.8,929.57,934.1,944.1,946.34,948.1,945.64,942.4,947.4,942.7,945.7,947.94,948.94,946.94,944.47,946.47,945,947,946.07,943.37,940.37,942.84,945.84,948.31,948.54,942.37,945.37,943.61,945.14,946.21,945.97,941.67,942.44,940.21,942.21,943.21,942.44,942.44,940.51,944.21,946.44,944.74,945.44,944.21,940.51,941.04,941.04,943.04,941.87,938.34,938.81,939.81,940.11,937.64,937.94,937.41,936.64,937.64,938.41,939.94,937.48,938.94,938.94,939.24,936.78,941.78,940.54,939.08,935.31,938.54,939.78,941.54,940.31,936.54,936.08,935.84,936.61,934.14,934.14,933.14,928.44,929.44,932.68,931.44,931.44,927.21,927.21,927.98,928.68,928.21,928.28,925.51,925.51,929.81,928.34,931.34,932.81,933.81,931.81,938.04,939.81,943.81,945.58,942.34,944.34,944.88,949.65,948.65,952.18,951.71,948.95,950.71,951.48,955.01,953.25,953.48,951.48,951.78,951.31,953.85,952.85,952.31,951.55,953.78,953.85,954.61,956.38,953.38,950.15,952.45,952.45,953.68,950.21,949.21,946.45,950.45,949.98,952.51,953.51,948.98,944.98,945.98,948.21,948.51,949.05,946.82,944.28,945.82,945.88,946.95,944.35,943.58,939.88,943.65,944.88,947.35,946.42,944.18,939.95,942.42,941.25,942.48,944.72,941.72,937.72,939.25,938.32,940.55,942.25,940.02,936.78,938.32,940.85,942.32,942.78,939.78,938.78,941.02,942.02,943.55,940.32,937.85,939.08,939.32,938.85,940.38,940.38,940.38,939.62,941.15,945.38,943.85,941.15,939.45,937.99,940.99,938.45,940.45,940.45,936.92,936.69,937.99,941.69,942.92,939.92,938.69,936.75,937.52,939.45,941.99,943.29,945.82,950.75,951.99,954.75,956.75,954.82,952.12,953.59,955.82,958.12,960.19,960.19,960.19,957.19,958.59,958.82,957.59,956.59,954.12,952.65,953.65,953.49,953.25,949.72,949.95,952.19,957.42,958.95,958.72,953.72,948.49,942.25,945.25,942.02,940.49,937.49,937.02,935.02,934.79,932.32,932.32,931.55,930.02,928.02,930.25,930.02,930.32,929.55,927.79,925.02,928.49,929.79,926.86,927.09,925.55,924.79,925.55,928.55,928.79,926.79,926.55,924.39,923.22,923.22,921.16,911.09,903.09,899.62,895.16,889.39,887.92,897.92,916.39,944.16,975.46,1013,1064.5,1120.7,1163.7,1185.9,1189.9,1159.5,1089.8,1004.8,939.99,903.69,897.46,905.99,912.52,918.99,919.46,916.69,918.69,922.22,922.76,924.29,920.06,918.06,919.52,919.06,922.06,919.52,918.52,917.52,916.29,917.29,917.99,918.69,917.92,914.52,914.06,915.06,915.12,915.89,915.89,912.89,913.89,915.66,917.42,916.66,914.89,916.36,916.89,918.89,920.12,919.82,919.82,915.12,918.36,918.19,920.19,914.66,912.66,912.66,914.19,917.19,915.42,917.89,916.42,912.96,913.72,915.19,917.19,916.96,913.26,913.26,914.49,913.49,916.26,915.49,916.19,915.19,914.49,919.03,918.26,917.03,915.56,912.86,914.86,914.33,918.26,916.26,914.26,912.79,914.79,915.49,916.26,916.49,913.49,910.72,911.96,913.26,911.03,914.03,908.86,908.86,909.33,912.26,911.56,911.86,908.16,908.39,912.09,913.79,913.56,912.33,912.09,908.09,910.33,913.33,915.79,915.79,913.79,916.56,919.03,923.03,924.56,925.56,925.56,923.79,926.56,930.03,930.56,932.79,930.79,932.03,933.72,936.72,938.49,936.79,935.26,934.26,935.03,935.79,935.79,938.03,936.03,935.19,934.42,935.96,937.26,936.26,933.49,933.49,933.26,935.49,934.26,935.72,933.26,930.09,930.79,933.03,934.03,936.03,933.26,935.26,932.26,933.26,934.03,932.49,930.49,928.49,927.79,928.49,930.72,930.49,927.49,925.03,926.56,928.56,928.03,928.26,927.72,924.72,925.03,925.56,925.79,927.49,926.19,924.72,923.03,924.79,926.03,926.72,928.19,927.66,929.19,928.96,930.72,929.49,926.26,922.49,923.49,925.19,927.89,926.36,925.42,923.96,922.49,923.49,925.72,922.96,921.96,922.96,922.96,926.42,923.42,924.66,923.89,921.89,923.66,925.19,925.66,926.66,924.19,923.19,924.42,928.66,928.66,929.19,926.96,925.19,926.49,929.72,929.19,930.66,933.12,928.36,931.36,934.36,935.36,934.89,935.12,935.12,938.66,942.59,942.36,941.89,942.36,942.59,942.36,946.59,949.82,948.06,948.06,947.29,947.06,947.36,950.06,950.29,947.52,943.52,944.82,946.82,947.76,945.52,943.52,942.99,949.76,953.52,953.76,949.46,941.69,935.99,936.46,933.06,931.99,930.16,927.46,925.99,923.76,925.76,925.76,924.99,927.99,924.22,925.46,925.69,927.16,925.39,924.16,923.46,923.22,924.99,926.92,927.39,924.86,923.86,924.09,925.32,927.09,927.79,924.32,921.39,920.62,921.62,919.39,911.86,903.09,899.09,893.09,887.55,881.79,888.72,907.72,932.49,958.72,988.72,1031,1083.2,1129,1160,1173.4,1161.7,1116.7,1042.4,967.72,922.19,904.42,905.19,913.19,922.12,925.05,921.99,923.52,925.05,929.05,925.35,926.89,926.35,925.82,926.05,927.82,927.29,925.75,924.99,926.99,926.99,926.75,924.05,923.05,921.52,923.45,925.45,925.75,925.29,921.29,920.29,921.75,928.38,927.92,927.22,927.75,922.75,923.29,924.82,927.82,924.29,922.99,922.99,925.15,927.62,926.69,926.69,925.45,923.69,925.69,928.69,925.69,927.08,926.08,924.85,924.85,927.08,927.32,927.02,924.32,923.08,926.08,927.55,931.78,929.55,928.55,929.55,926.78,929.78,930.78,931.55,930.78,928.78,927.78,930.78,929.78,931.32,929.08,924.78,927.72,928.42,928.35,927.65,927.18,922.48,926.72,929.42,928.35,931.05,927.82,925.35,925.35,926.65,926.72,925.78,922.25,921.48,926.72,928.95,927.42,928.88,928.35,928.58,930.12,933.42,935.82,938.51,939.28,937.82,940.82,943.28,944.05,946.82,945.58,942.82,947.28,952.75,953.45,952.51,952.51,951.98,949.82,951.35,951.58,951.28,949.21,947.68,947.91,948.45,950.91,951.68,949.68,946.68,948.91,947.98,948.28,947.05,946.98,947.15,946.85,949.08,948.31,948.55,947.55,947.01,950.01,952.78,953.08,950.38,948.91,945.91,946.91,946.38,946.31,947.95,946.88,945.34,948.65,948.78,945.15,945.15,943.38,941.55,941.85,945.01,944.08,945.38,944.31,946.48,947.65,948.18,948.71,946.78,942.91,939.45,944.45,946.15,946.85,946.78,946.48,945.41,944.65,946.41,945.78,947.08,942.61,941.08,942.78,946.25,947.71,945.71,942.25,942.31,944.78,943.01,946.01,947.31,948.31,945.55,947.55,945.48,948.48,946.55,946.01,945.48,945.95,948.95,950.65,952.11,951.11,951.34,953.34,955.41,956.71,957.95,959.11,957.81,960.34,961.65,961.95,962.95,962.18,962.48,966.25,968.95,969.34,970.28,968.04,966.11,965.11,965.11,967.34,968.58,965.11,958.41,962.41,961.41,965.88,968.81,970.11,965.11,961.81,958.81,957.04,951.04,950.98,946.44,945.44,944.04,941.58,940.58,943.28,942.74,943.21,943.44,945.44,946.68,944.21,939.74,941.51,945.21,947.38,948.14,948.44,943.51,941.74,945.21,946.44,946.21,945.61,943.78,944.01,943.14,943.91,939.14,932.21,923.51,921.04,923.21,922.54,919.94,907.48,901.01,906.84,922.98,947.14,976.31,1010.5,1056.5,1110.2,1155.4,1186.7,1194.2,1162.8,1097.8,1018.9,963.17,931.24,914.61,919.38,925.08,932.24,937.94,937.17,936.48,935.48,938.64,935.94,942.27,943.04,941.81,938.17,936.71,936.48,940.87,942.11,939.87,939.87,940.64,939.17,941.48,941.24,939.71,937.87,936.57,938.81,941.04,942.11,938.34,937.81,936.04,936.27,940.51,940.81,936.74,939.67,940.37,940.21,939.81,939.87,939.51,940.51,938.51,939.27,941.74,942.27,941.27,941.44,942.14,940.61,942.14,942.67,941.44,940.21,937.97,938.74,941.51,942.51,941.51,938.04,937.51,941.61,945.7,946.47,944.77,941.07,942.31,941.07,940.84,944,943,940.77,935.84,938.07,937.61,937.91,935.91,937.77,939.1,936.4,938.04,935.47,928.97,927.51,925.44,931.07,932.84,932.91,932.67,930.31,928.24,934.17,938.57,940.57,942.34,940.87,939.47,940.37,944.74,950.37,948.84,952.31,952.54,954.31,957.77,959.64,961.64,959.17,958.7,958.24,963.47,963.94,962.94,963.17,962.17,963.17,968.8,969.74,968.5,966.1,960.87,962.34,964.34,962.57,964.04,962.04,960.34,958.7,957.84,962.84,960,962.57,963.97,963.97,966.27,967.5,965.97,964.2,963.44,963.74,962.34,957.94,957.94,957.94,956.7,957.7,962.34,962.5,962.4,960.24,956.77,956.54,958.94,958.87,958.27,957.27,956.27,958.04,960.2,959.04,954.4,954.94,953.34,955.5,958.5,954.4,955.47,953.47,951.47,953.47,954.47,958.34,958.34,956.64,955.47,954.84,955.91,956.67,957,957.17,956.64,955.54,955.31,956.77,957,956.7,954.17,956.17,956.47,959.17,959.27,959.27,956.8,958.34,960.34,960.47,959.84,963.31,963.54,964.77,968.7,970.17,973.64,972.1,971.94,977.87,980.5,983.44,982.67,983.9,980.2,979.04,979.34,976.87,974.47,974,971.24,973.17,973.4,973.17,975.17,975.94,978.94,979.94,976.64,974.64,969.7,964.94,957.7,959,957.54,959.47,957.64,957.57,955.1,954.17,953.24,952,952.94,956.57,953.87,954.64,954.17,954.17,955.4,952.1,952.57,955.74,956.27,952.17,953.24,949.24,947.94,948.94,948.94,953.4,952.1,952.1,946.64,947.64,941.1,936.27,932.97,925.1,911.94,908.47,923.4,950.57,980.27,1010.1,1050.9,1106.5,1161.4,1201,1216.2,1197.7,1139.5,1055.6,987.1,946.8,931.04,931.27,938.04,951.27,952.2,953.6,951.2,951.5,949.04,950.04,951.04,951.04,950.04,949.97,951.67,951.67,951.13,954.37,953.37,952.6,949.6,949.9,950.67,951.67,951.9,952.37,949.6,956.07,954,957.17,955.63,956.87,955.17,955.47,957.77,959,959.47,956.7,954.23,954,955.23,957.23,956,953.77,954,954.17,958.63,956.87,956.4,953.4,955.63,956.63,956.4,958.4,958.33,955.33,953.33,956.87,957.63,958.17,956.93,957.17,955.4,955.87,958.33,963.57,963.8,961.27,958.96,960.5,957.57,958.63,956.1,957.03,955.73,955.27,958.03,956.8,955.4,952.63,951.8,956.13,957.3,957.53,954.43,950.96,950.2,952.2
